
5.000	13096
5.020	13090
5.040	12297
5.060	12090
5.080	11665
5.100	11141
5.120	10986
5.140	10799
5.160	10863
5.180	10885
5.200	10832
5.220	10821
5.240	10849
5.260	10869
5.280	10892
5.300	10911
5.320	10734
5.340	10719
5.360	10909
5.380	11060
5.400	10952
5.420	10760
5.440	10836
5.460	10631
5.480	10722
5.500	10936
5.520	10943
5.540	10955
5.560	10687
5.580	10931
5.600	11071
5.620	10906
5.640	10933
5.660	10983
5.680	10826
5.700	10795
5.720	10748
5.740	10941
5.760	10753
5.780	10999
5.800	10982
5.820	10994
5.840	11074
5.860	11029
5.880	10980
5.900	11230
5.920	10896
5.940	11005
5.960	11165
5.980	11152
6.000	10826
6.020	10962
6.040	11118
6.060	11129
6.080	11133
6.100	11243
6.120	11071
6.140	11103
6.160	11196
6.180	11162
6.200	11100
6.220	11169
6.240	11375
6.260	11287
6.280	11278
6.300	11088
6.320	11120
6.340	11087
6.360	11406
6.380	11204
6.400	11257
6.420	11144
6.440	11413
6.460	11064
6.480	11329
6.500	11217
6.520	11306
6.540	11511
6.560	11232
6.580	11414
6.600	11280
6.620	11264
6.640	11361
6.660	11439
6.680	11395
6.700	11595
6.720	11314
6.740	11419
6.760	11520
6.780	11396
6.800	11342
6.820	11494
6.840	11457
6.860	11624
6.880	11398
6.900	11528
6.920	11567
6.940	11635
6.960	11613
6.980	11399
7.000	11741
7.020	11549
7.040	11619
7.060	11594
7.080	11662
7.100	11630
7.120	11616
7.140	11710
7.160	11889
7.180	11903
7.200	11626
7.220	12150
7.240	12050
7.260	11871
7.280	12158
7.300	11960
7.320	12156
7.340	12299
7.360	12182
7.380	12320
7.400	12456
7.420	12628
7.440	12401
7.460	12501
7.480	12570
7.500	12784
7.520	12900
7.540	12828
7.560	13025
7.580	13182
7.600	13306
7.620	13296
7.640	13666
7.660	13798
7.680	14165
7.700	14462
7.720	14772
7.740	15044
7.760	15591
7.780	16162
7.800	16872
7.820	17271
7.840	18113
7.860	18779
7.880	19901
7.900	20862
7.920	22257
7.940	23309
7.960	25311
7.980	26652
8.000	28978
8.020	31105
8.040	33869
8.060	37231
8.080	40532
8.100	44562
8.120	48725
8.141	54040
8.161	59385
8.181	63653
8.201	69075
8.221	72583
8.241	75085
8.261	75424
8.281	73762
8.301	69730
8.321	62959
8.341	56022
8.361	49259
8.381	42647
8.401	37140
8.421	33183
8.441	29459
8.461	26766
8.481	24177
8.501	22673
8.521	21427
8.541	19744
8.561	18896
8.581	18355
8.601	17572
8.621	16752
8.641	16488
8.661	16114
8.681	15951
8.701	15518
8.721	15061
8.741	15001
8.761	14635
8.781	14404
8.801	14434
8.821	14265
8.841	13997
8.861	14109
8.881	13727
8.901	13628
8.921	13633
8.941	13526
8.961	13548
8.981	13523
9.001	13479
9.021	13361
9.041	13422
9.061	13288
9.081	13188
9.101	13044
9.121	12857
9.141	13051
9.161	12856
9.181	12762
9.201	12910
9.221	12807
9.241	12836
9.261	12922
9.281	12746
9.301	12716
9.321	12694
9.341	12734
9.361	12553
9.381	12678
9.401	12567
9.421	12494
9.441	12668
9.461	12576
9.481	12267
9.501	12472
9.521	12473
9.541	12444
9.561	12477
9.581	12441
9.601	12289
9.621	12398
9.641	12212
9.661	12338
9.681	12298
9.701	12295
9.721	12244
9.741	12173
9.761	12194
9.781	12349
9.801	11893
9.821	12195
9.841	12075
9.861	12051
9.881	11973
9.901	12207
9.921	12148
9.941	12177
9.961	12098
9.981	12078
10.001	11899
10.021	11993
10.041	11927
10.061	12092
10.081	12127
10.101	11901
10.121	12029
10.141	11972
10.161	12088
10.181	11947
10.201	11832
10.221	12339
10.241	11976
10.261	11947
10.281	12033
10.301	12063
10.321	11877
10.341	11801
10.361	11862
10.381	11973
10.401	11965
10.421	11855
10.441	12009
10.461	11849
10.481	11957
10.501	11903
10.521	11848
10.541	11873
10.561	11964
10.581	11765
10.601	11776
10.621	11760
10.641	11900
10.661	11842
10.681	12052
10.701	11867
10.721	11835
10.741	12013
10.761	11677
10.781	12021
10.801	11954
10.821	11796
10.841	11767
10.861	11909
10.881	11665
10.901	11860
10.921	11873
10.941	11795
10.961	11717
10.981	11902
11.001	11835
11.021	11864
11.041	11833
11.061	11899
11.081	11784
11.101	11697
11.121	11882
11.141	11569
11.161	11840
11.181	11854
11.201	11952
11.221	11987
11.241	12056
11.261	11794
11.281	11982
11.301	11869
11.321	12073
11.341	11978
11.361	11886
11.381	11924
11.401	11814
11.421	12047
11.441	11831
11.461	12032
11.481	12047
11.501	11876
11.521	11775
11.541	11593
11.561	11752
11.581	11859
11.601	11751
11.621	11580
11.641	11835
11.661	12080
11.681	11877
11.701	11965
11.721	11929
11.741	11770
11.761	11862
11.781	11823
11.801	11935
11.821	11836
11.841	11869
11.861	11922
11.881	11782
11.901	11752
11.921	11778
11.941	11855
11.961	11577
11.981	11797
12.001	11817
12.021	11721
12.041	11689
12.061	11836
12.081	11953
12.101	11679
12.121	11803
12.141	11759
12.161	11541
12.181	11873
12.201	11915
12.221	11751
12.241	11721
12.261	11623
12.281	11912
12.301	11818
12.321	11605
12.341	11864
12.361	11739
12.381	11754
12.401	11741
12.421	11978
12.441	11699
12.461	11728
12.481	11964
12.501	11822
12.521	11647
12.541	11869
12.561	11840
12.581	11774
12.601	11736
12.621	12044
12.641	11732
12.661	11761
12.681	11673
12.701	11833
12.721	12002
12.741	11704
12.761	11736
12.781	11689
12.801	11848
12.821	11805
12.841	11785
12.861	11674
12.881	11930
12.901	11883
12.921	11963
12.941	11763
12.961	12008
12.981	11704
13.001	11812
13.021	11859
13.041	11665
13.061	11736
13.081	11816
13.101	11808
13.121	11818
13.141	11765
13.161	11643
13.181	11660
13.201	11695
13.221	11852
13.241	11667
13.261	11745
13.281	11839
13.301	11859
13.321	11674
13.341	11819
13.361	11748
13.381	11718
13.401	11836
13.421	11807
13.441	11797
13.461	11848
13.481	11712
13.501	11791
13.521	11772
13.541	12012
13.561	11911
13.581	11837
13.601	11999
13.621	11941
13.641	11750
13.661	11766
13.681	11993
13.701	11989
13.721	11893
13.741	11805
13.761	11736
13.781	11833
13.801	11761
13.821	11843
13.841	11948
13.861	11763
13.881	11781
13.901	11894
13.921	12048
13.941	11901
13.961	11839
13.981	11873
14.001	11853
14.021	11597
14.041	11631
14.061	11825
14.081	11777
14.101	11849
14.121	11823
14.141	11705
14.161	11960
14.181	11727
14.201	11755
14.221	11884
14.241	11619
14.261	11893
14.281	11625
14.301	11832
14.321	11663
14.341	11766
14.361	11663
14.382	11785
14.402	11873
14.422	11839
14.442	11919
14.462	11768
14.482	11789
14.502	11733
14.522	11618
14.542	11790
14.562	11862
14.582	11802
14.602	12098
14.622	11672
14.642	11605
14.662	11708
14.682	11715
14.702	11778
14.722	11923
14.742	11760
14.762	11616
14.782	11727
14.802	11937
14.822	11754
14.842	11737
14.862	11835
14.882	11655
14.902	11836
14.922	11879
14.942	11921
14.962	11899
14.982	11854
15.002	11916
15.022	11979
15.042	11859
15.062	11918
15.082	12004
15.102	11512
15.122	11764
15.142	11791
15.162	11824
15.182	11742
15.202	11864
15.222	11980
15.242	11751
15.262	11868
15.282	11887
15.302	11755
15.322	11841
15.342	11774
15.362	11960
15.382	11915
15.402	12014
15.422	11712
15.442	11681
15.462	11827
15.482	11862
15.502	11765
15.522	11833
15.542	11895
15.562	11725
15.582	11778
15.602	11856
15.622	11840
15.642	11965
15.662	11846
15.682	11824
15.702	11769
15.722	11771
15.742	11708
15.762	12059
15.782	11986
15.802	11926
15.822	12116
15.842	11706
15.862	12112
15.882	12165
15.902	12005
15.922	12015
15.942	12070
15.962	12114
15.982	12206
16.002	12168
16.022	12094
16.042	12299
16.062	12189
16.082	12504
16.102	12495
16.122	12516
16.142	12582
16.162	13019
16.182	13149
16.202	12844
16.222	12985
16.242	13215
16.262	13201
16.282	13484
16.302	13558
16.322	13792
16.342	14241
16.362	14343
16.382	15249
16.402	15380
16.422	16140
16.442	17070
16.462	17606
16.482	18531
16.502	19681
16.522	20349
16.542	20959
16.562	21403
16.582	21427
16.602	21195
16.622	20369
16.642	19412
16.662	18714
16.682	17571
16.702	16881
16.722	15867
16.742	15147
16.762	14581
16.782	14239
16.802	13739
16.822	13530
16.842	13287
16.862	12878
16.882	12806
16.902	12688
16.922	12422
16.942	12527
16.962	12428
16.982	12154
17.002	12468
17.022	12245
17.042	12297
17.062	12251
17.082	12044
17.102	12094
17.122	12233
17.142	12140
17.162	11893
17.182	12106
17.202	12043
17.222	12096
17.242	11996
17.262	11917
17.282	12048
17.302	12059
17.322	11743
17.342	12030
17.362	11921
17.382	11855
17.402	11925
17.422	11747
17.442	11863
17.462	11918
17.482	11777
17.502	11857
17.522	11845
17.542	11776
17.562	11820
17.582	11838
17.602	11925
17.622	11844
17.642	12060
17.662	11910
17.682	11892
17.702	11770
17.722	11682
17.742	11439
17.762	11651
17.782	11729
17.802	11789
17.822	11906
17.842	11837
17.862	11662
17.882	11857
17.902	11898
17.922	11784
17.942	11725
17.962	11752
17.982	11868
18.002	11858
18.022	11850
18.042	11847
18.062	11882
18.082	11883
18.102	11745
18.122	11772
18.142	11748
18.162	11801
18.182	11892
18.202	11825
18.222	11727
18.242	11885
18.262	11612
18.282	11711
18.302	11736
18.322	11991
18.342	11544
18.362	11764
18.382	11701
18.402	11783
18.422	11699
18.442	11997
18.462	11760
18.482	11767
18.502	11730
18.522	11684
18.542	11684
18.562	11682
18.582	11818
18.602	11644
18.622	11788
18.642	11623
18.662	11747
18.682	11767
18.702	11931
18.722	11704
18.742	11693
18.762	11886
18.782	11856
18.802	11583
18.822	11846
18.842	11772
18.862	11749
18.882	11830
18.902	11617
18.922	11671
18.942	11582
18.962	11842
18.982	11742
19.002	11733
19.022	11727
19.042	11622
19.062	11603
19.082	11568
19.102	11821
19.122	11751
19.142	11571
19.162	11993
19.182	11831
19.202	11817
19.222	11752
19.242	11803
19.262	11711
19.282	11674
19.302	11659
19.322	11516
19.342	11577
19.362	11802
19.382	11673
19.402	11547
19.422	11639
19.442	11712
19.462	11650
19.482	11698
19.502	11621
19.522	11642
19.542	11709
19.562	11805
19.582	11759
19.602	11715
19.622	11881
19.642	11749
19.662	11807
19.682	11686
19.702	11727
19.722	11867
19.742	11475
19.762	11967
19.782	11928
19.802	11824
19.822	11808
19.842	11788
19.862	11849
19.882	11433
19.902	11789
19.922	11677
19.942	11753
19.962	11627
19.982	11620
20.002	11646
20.022	11581
20.042	11827
20.062	11854
20.082	11621
20.102	11764
20.122	11709
20.142	11785
20.162	11796
20.182	11712
20.202	11709
20.222	11557
20.242	11561
20.262	11755
20.282	11709
20.302	11701
20.322	11732
20.342	11602
20.362	11623
20.382	11472
20.402	11597
20.422	11642
20.442	11663
20.462	11700
20.482	11768
20.502	11587
20.522	11714
20.542	11473
20.562	11572
20.582	11561
20.602	11557
20.622	11813
20.643	11713
20.663	11644
20.683	11612
20.703	11588
20.723	11565
20.743	11727
20.763	11749
20.783	11756
20.803	11814
20.823	11660
20.843	11683
20.863	11544
20.883	11848
20.903	11759
20.923	11589
20.943	11744
20.963	11713
20.983	11741
21.003	11617
21.023	11533
21.043	11747
21.063	11704
21.083	11422
21.103	11763
21.123	11613
21.143	11704
21.163	11899
21.183	11625
21.203	11701
21.223	11578
21.243	11491
21.263	11701
21.283	11806
21.303	11977
21.323	11630
21.343	11634
21.363	11738
21.383	11586
21.403	11761
21.423	11684
21.443	11717
21.463	11631
21.483	11745
21.503	11762
21.523	11696
21.543	11692
21.563	11653
21.583	11712
21.603	11745
21.623	11702
21.643	11784
21.663	11661
21.683	11724
21.703	11891
21.723	11717
21.743	12144
21.763	11821
21.783	12119
21.803	12032
21.823	12106
21.843	12205
21.863	11901
21.883	12125
21.903	12316
21.923	12261
21.943	12551
21.963	12509
21.983	12576
22.003	12779
22.023	12704
22.043	12753
22.063	12578
22.083	12687
22.103	12430
22.123	12173
22.143	12443
22.163	12060
22.183	12319
22.203	12133
22.223	11820
22.243	11850
22.263	11886
22.283	11718
22.303	11807
22.323	11726
22.343	11804
22.363	11824
22.383	11543
22.403	11880
22.423	11772
22.443	11623
22.463	11697
22.483	11812
22.503	11715
22.523	11669
22.543	11715
22.563	11685
22.583	11566
22.603	11486
22.623	11462
22.643	11753
22.663	11656
22.683	11623
22.703	11714
22.723	11519
22.743	11411
22.763	11533
22.783	11831
22.803	11453
22.823	11806
22.843	11686
22.863	11644
22.883	11826
22.903	11707
22.923	11632
22.943	11775
22.963	11624
22.983	11603
23.003	11735
23.023	11622
23.043	11627
23.063	11652
23.083	11707
23.103	11551
23.123	11449
23.143	11472
23.163	11680
23.183	11646
23.203	11563
23.223	11768
23.243	11624
23.263	11674
23.283	11884
23.303	11790
23.323	11704
23.343	11758
23.363	11537
23.383	11712
23.403	11530
23.423	11701
23.443	11500
23.463	11975
23.483	11783
23.503	11590
23.523	11731
23.543	11629
23.563	11546
23.583	11526
23.603	11701
23.623	11831
23.643	11496
23.663	11891
23.683	11574
23.703	11848
23.723	11712
23.743	11510
23.763	11754
23.783	11881
23.803	11802
23.823	11532
23.843	11605
23.863	11772
23.883	11618
23.903	11687
23.923	11701
23.943	11824
23.963	11822
23.983	11773
24.003	11589
24.023	11901
24.043	11715
24.063	11699
24.083	11835
24.103	11788
24.123	11918
24.143	11846
24.163	11834
24.183	11843
24.203	11713
24.223	11910
24.243	12017
24.263	11826
24.283	11941
24.303	11873
24.323	12053
24.343	11878
24.363	11785
24.383	11997
24.403	12009
24.423	11964
24.443	12416
24.463	12170
24.483	12312
24.503	12413
24.523	12186
24.543	12355
24.563	12344
24.583	12571
24.603	12610
24.623	12607
24.643	12846
24.663	12967
24.683	13122
24.703	13367
24.723	13613
24.743	13888
24.763	14245
24.783	14372
24.803	15027
24.823	15466
24.843	16323
24.863	16711
24.883	17377
24.903	17890
24.923	18127
24.943	18345
24.963	18730
24.983	18649
25.003	18094
25.023	17735
25.043	16904
25.063	16655
25.083	15638
25.103	15168
25.123	14459
25.143	14396
25.163	14078
25.183	13818
25.203	13374
25.223	13017
25.243	12877
25.263	12910
25.283	12610
25.303	12539
25.323	12492
25.343	12323
25.363	12186
25.383	12360
25.403	12346
25.423	12149
25.443	12095
25.463	12012
25.483	11984
25.503	11830
25.523	12188
25.543	12275
25.563	12161
25.583	11962
25.603	12067
25.623	12074
25.643	12139
25.663	12141
25.683	12169
25.703	12022
25.723	12059
25.743	12116
25.763	12330
25.783	12342
25.803	12274
25.823	12450
25.843	12640
25.863	12539
25.883	12806
25.903	12827
25.923	12979
25.943	13088
25.963	13156
25.983	13538
26.003	13617
26.023	14095
26.043	14109
26.063	14574
26.083	14592
26.103	15113
26.123	15492
26.143	15747
26.163	16381
26.183	16359
26.203	16155
26.223	16225
26.243	16108
26.263	15599
26.283	14988
26.303	14618
26.323	14279
26.343	13762
26.363	13774
26.383	13334
26.403	12953
26.423	12928
26.443	12651
26.463	12637
26.483	12302
26.503	12341
26.523	12426
26.543	12074
26.563	12122
26.583	12114
26.603	12049
26.623	11874
26.643	11733
26.663	11891
26.683	11852
26.703	12078
26.723	11999
26.743	11882
26.763	11907
26.783	12006
26.803	11928
26.823	11743
26.843	11796
26.863	11886
26.884	12022
26.904	11812
26.924	12086
26.944	11686
26.964	11915
26.984	11807
27.004	11871
27.024	11688
27.044	11794
27.064	11858
27.084	11746
27.104	11842
27.124	11870
27.144	11830
27.164	11814
27.184	11868
27.204	11886
27.224	12143
27.244	11971
27.264	11767
27.284	11982
27.304	11812
27.324	11655
27.344	12020
27.364	11900
27.384	11948
27.404	11802
27.424	11989
27.444	12043
27.464	11721
27.484	11870
27.504	11904
27.524	12060
27.544	11878
27.564	11767
27.584	12074
27.604	12013
27.624	12071
27.644	12165
27.664	12136
27.684	12024
27.704	12139
27.724	12025
27.744	12038
27.764	12132
27.784	12395
27.804	12335
27.824	12303
27.844	12252
27.864	12478
27.884	12555
27.904	12641
27.924	12643
27.944	12629
27.964	12568
27.984	12737
28.004	12697
28.024	13038
28.044	13067
28.064	13350
28.084	13625
28.104	13653
28.124	14173
28.144	14312
28.164	14526
28.184	14825
28.204	15424
28.224	15743
28.244	16061
28.264	16396
28.284	16187
28.304	16206
28.324	16481
28.344	16308
28.364	16348
28.384	16402
28.404	16259
28.424	16334
28.444	16366
28.464	16803
28.484	16921
28.504	17291
28.524	17948
28.544	18271
28.564	18806
28.584	19164
28.604	19949
28.624	20504
28.644	21118
28.664	21722
28.684	22589
28.704	23007
28.724	23689
28.744	24456
28.764	24111
28.784	24555
28.804	24214
28.824	23734
28.844	22690
28.864	22155
28.884	21509
28.904	20742
28.924	20007
28.944	19271
28.964	18507
28.984	17951
29.004	17654
29.024	16828
29.044	16565
29.064	16402
29.084	15870
29.104	15582
29.124	15426
29.144	15526
29.164	15181
29.184	15031
29.204	15046
29.224	14986
29.244	15106
29.264	15004
29.284	15457
29.304	15193
29.324	15560
29.344	15661
29.364	15560
29.384	15748
29.404	15853
29.424	16077
29.444	16302
29.464	16220
29.484	16407
29.504	16428
29.524	16218
29.544	16109
29.564	15902
29.584	15777
29.604	15569
29.624	15745
29.644	15186
29.664	15234
29.684	15174
29.704	15122
29.724	14963
29.744	15062
29.764	15321
29.784	15312
29.804	15464
29.824	15393
29.844	15622
29.864	15817
29.884	15909
29.904	16134
29.924	16648
29.944	17135
29.964	17878
29.984	18560
30.004	19305
30.024	20418
30.044	20945
30.064	22134
30.084	23023
30.104	23648
30.124	24021
30.144	23919
30.164	23832
30.184	23197
30.204	22748
30.224	21652
30.244	20448
30.264	19529
30.284	18281
30.304	17246
30.324	16651
30.344	15840
30.364	15319
30.384	14743
30.404	14402
30.424	13954
30.444	13882
30.464	13475
30.484	13211
30.504	13125
30.524	13083
30.544	13015
30.564	12910
30.584	12574
30.604	12381
30.624	12498
30.644	12474
30.664	12416
30.684	12312
30.704	12246
30.724	12388
30.744	12376
30.764	12337
30.784	12205
30.804	12077
30.824	12199
30.844	12138
30.864	11841
30.884	12165
30.904	11900
30.924	12187
30.944	11955
30.964	12132
30.984	12032
31.004	12016
31.024	12053
31.044	11997
31.064	12006
31.084	11885
31.104	12185
31.124	12020
31.144	11916
31.164	12010
31.184	11881
31.204	11829
31.224	12003
31.244	11893
31.264	12053
31.284	12078
31.304	11941
31.324	11947
31.344	11937
31.364	12030
31.384	11894
31.404	11826
31.424	12063
31.444	11881
31.464	11756
31.484	11776
31.504	11724
31.524	12015
31.544	11911
31.564	11928
31.584	11847
31.604	11639
31.624	11952
31.644	11906
31.664	11840
31.684	12024
31.704	11865
31.724	11832
31.744	11930
31.764	11773
31.784	11848
31.804	11931
31.824	11913
31.844	12052
31.864	11940
31.884	11870
31.904	12151
31.924	11940
31.944	11785
31.964	11769
31.984	12075
32.004	12055
32.024	11960
32.044	11986
32.064	12276
32.084	12124
32.104	11991
32.124	12115
32.144	11984
32.164	12084
32.184	12191
32.204	12080
32.224	12170
32.244	12017
32.264	11898
32.284	12277
32.304	12080
32.324	12342
32.344	12386
32.364	12276
32.384	12461
32.404	12569
32.424	12613
32.444	12413
32.464	12707
32.484	12687
32.504	12874
32.524	12498
32.544	12941
32.564	12930
32.584	12952
32.604	12782
32.624	13134
32.644	13329
32.664	13284
32.684	13420
32.704	13734
32.724	13633
32.744	13675
32.764	13924
32.784	13898
32.804	13947
32.824	13711
32.844	14227
32.864	14301
32.884	14466
32.904	14108
32.924	14738
32.944	14377
32.964	14673
32.984	14432
33.004	14335
33.024	14281
33.044	14419
33.064	14558
33.084	14263
33.104	14260
33.125	14014
33.145	13846
33.165	14261
33.185	14121
33.205	14174
33.225	13840
33.245	14056
33.265	14017
33.285	13987
33.305	13740
33.325	13930
33.345	13985
33.365	13816
33.385	13537
33.405	13752
33.425	13796
33.445	13657
33.465	13696
33.485	13406
33.505	13460
33.525	13627
33.545	13198
33.565	13260
33.585	12985
33.605	13024
33.625	12601
33.645	12712
33.665	12681
33.685	12656
33.705	12753
33.725	12161
33.745	12489
33.765	12416
33.785	12399
33.805	12169
33.825	12380
33.845	12334
33.865	12213
33.885	12071
33.905	12317
33.925	12447
33.945	12260
33.965	12133
33.985	12163
34.005	12351
34.025	12236
34.045	12069
34.065	11987
34.085	11897
34.105	12081
34.125	11987
34.145	11913
34.165	11871
34.185	11962
34.205	12006
34.225	12025
34.245	12180
34.265	11753
34.285	12078
34.305	11997
34.325	12026
34.345	11932
34.365	12069
34.385	11883
34.405	11973
34.425	12180
34.445	11845
34.465	12009
34.485	12144
34.505	11872
34.525	12025
34.545	11877
34.565	11954
34.585	12090
34.605	11961
34.625	12169
34.645	12008
34.665	12070
34.685	12162
34.705	12194
34.725	12158
34.745	12123
34.765	12325
34.785	12362
34.805	12269
34.825	12418
34.845	12266
34.865	12496
34.885	12290
34.905	12146
34.925	12501
34.945	12442
34.965	12365
34.985	12328
35.005	12566
35.025	12318
35.045	12441
35.065	12489
35.085	12477
35.105	12461
35.125	12605
35.145	12400
35.165	12716
35.185	12598
35.205	12511
35.225	12677
35.245	12816
35.265	12723
35.285	12811
35.305	12919
35.325	13083
35.345	12944
35.365	13185
35.385	13316
35.405	13223
35.425	13188
35.445	13712
35.465	13593
35.485	13673
35.505	13939
35.525	14138
35.545	14327
35.565	14368
35.585	14652
35.605	15159
35.625	15301
35.645	15717
35.665	16403
35.685	16527
35.705	17136
35.725	17459
35.745	18176
35.765	18976
35.785	19813
35.805	20718
35.825	21669
35.845	22561
35.865	23855
35.885	24958
35.905	26442
35.925	28272
35.945	29741
35.965	31160
35.985	33531
36.005	35494
36.025	37638
36.045	39461
36.065	41229
36.085	42514
36.105	43036
36.125	43132
36.145	42533
36.165	41087
36.185	39840
36.205	37798
36.225	35963
36.245	34042
36.265	32145
36.285	30465
36.305	28557
36.325	28025
36.345	26754
36.365	25769
36.385	25285
36.405	25173
36.425	25289
36.445	25361
36.465	25891
36.485	26365
36.505	27053
36.525	27798
36.545	28470
36.565	29514
36.585	29905
36.605	30347
36.625	30203
36.645	29631
36.665	29146
36.685	27532
36.705	26337
36.725	25247
36.745	23556
36.765	22406
36.785	21211
36.805	20153
36.825	18796
36.845	17928
36.865	17110
36.885	16694
36.905	16071
36.925	15907
36.945	15491
36.965	14960
36.985	14682
37.005	14357
37.025	14186
37.045	13963
37.065	13983
37.085	13811
37.105	13667
37.125	13509
37.145	13611
37.165	13457
37.185	13240
37.205	13261
37.225	13265
37.245	13263
37.265	13260
37.285	13215
37.305	13200
37.325	13123
37.345	13212
37.365	13284
37.385	13189
37.405	13296
37.425	13193
37.445	13067
37.465	13186
37.485	13261
37.505	13363
37.525	13275
37.545	13365
37.565	13193
37.585	13619
37.605	13748
37.625	13642
37.645	13705
37.665	13817
37.685	13765
37.705	13816
37.725	14073
37.745	14091
37.765	14203
37.785	14205
37.805	14259
37.825	14484
37.845	14508
37.865	15016
37.885	14886
37.905	15161
37.925	15138
37.945	15326
37.965	15418
37.985	15648
38.005	15583
38.025	15477
38.045	15612
38.065	15442
38.085	15359
38.105	15527
38.125	15611
38.145	15244
38.165	14971
38.185	14835
38.205	14683
38.225	14694
38.245	14532
38.265	14128
38.285	14014
38.305	13824
38.325	13626
38.345	13806
38.365	13613
38.385	13304
38.405	13391
38.425	13275
38.445	13193
38.465	13080
38.485	12998
38.505	12979
38.525	12835
38.545	12754
38.565	12923
38.585	12722
38.605	12739
38.625	12608
38.645	12565
38.665	12698
38.685	12645
38.705	12463
38.725	12378
38.745	12319
38.765	12475
38.785	12460
38.805	12209
38.825	12407
38.845	12403
38.865	12499
38.885	12379
38.905	12486
38.925	12412
38.945	12249
38.965	12412
38.985	12394
39.005	12150
39.025	12313
39.045	12150
39.065	12616
39.085	12395
39.105	12269
39.125	12282
39.145	12447
39.165	12415
39.185	12471
39.205	12236
39.225	12485
39.245	12480
39.265	12650
39.285	12546
39.305	12382
39.325	12582
39.345	12529
39.365	12543
39.386	12407
39.406	12673
39.426	12567
39.446	12507
39.466	12644
39.486	12334
39.506	12530
39.526	12216
39.546	12331
39.566	12481
39.586	12581
39.606	12159
39.626	12265
39.646	12300
39.666	12003
39.686	12066
39.706	12079
39.726	12083
39.746	12101
39.766	12222
39.786	12045
39.806	12045
39.826	11784
39.846	11771
39.866	12075
39.886	11963
39.906	12010
39.926	11967
39.946	11952
39.966	11919
39.986	11906
40.006	11924
40.026	11766
40.046	11960
40.066	11798
40.086	11857
40.106	11821
40.126	11949
40.146	11812
40.166	11806
40.186	11880
40.206	11748
40.226	12030
40.246	11851
40.266	11848
40.286	11991
40.306	11796
40.326	11703
40.346	11777
40.366	11618
40.386	11742
40.406	11916
40.426	11750
40.446	11763
40.466	11765
40.486	11634
40.506	11693
40.526	11585
40.546	11862
40.566	11633
40.586	11860
40.606	11901
40.626	11770
40.646	11774
40.666	11776
40.686	11905
40.706	11880
40.726	11815
40.746	11710
40.766	11681
40.786	11610
40.806	11518
40.826	11735
40.846	11698
40.866	11763
40.886	11598
40.906	11756
40.926	11861
40.946	11663
40.966	11798
40.986	11713
41.006	11854
41.026	11610
41.046	11547
41.066	11917
41.086	11681
41.106	11648
41.126	11708
41.146	11575
41.166	11572
41.186	11764
41.206	11791
41.226	11621
41.246	11661
41.266	11760
41.286	11709
41.306	11822
41.326	11737
41.346	11769
41.366	11595
41.386	11835
41.406	11973
41.426	11774
41.446	11822
41.466	11683
41.486	11696
41.506	11694
41.526	11686
41.546	11719
41.566	11704
41.586	11672
41.606	11957
41.626	11693
41.646	11657
41.666	11750
41.686	11632
41.706	11863
41.726	11802
41.746	11595
41.766	11860
41.786	11967
41.806	11561
41.826	11983
41.846	11857
41.866	11773
41.886	11811
41.906	11781
41.926	11850
41.946	11812
41.966	11943
41.986	11722
42.006	11979
42.026	12087
42.046	11930
42.066	12167
42.086	12039
42.106	12172
42.126	12284
42.146	12078
42.166	12111
42.186	12257
42.206	12166
42.226	12043
42.246	12378
42.266	12128
42.286	12240
42.306	12017
42.326	12351
42.346	12307
42.366	12119
42.386	11994
42.406	12147
42.426	12136
42.446	11913
42.466	12029
42.486	11802
42.506	12076
42.526	12142
42.546	11862
42.566	12096
42.586	11952
42.606	12058
42.626	12077
42.646	12001
42.666	11929
42.686	12089
42.706	11854
42.726	11913
42.746	11964
42.766	12008
42.786	12015
42.806	12245
42.826	12281
42.846	11965
42.866	11870
42.886	12036
42.906	12118
42.926	12112
42.946	12021
42.966	12232
42.986	12076
43.006	12004
43.026	12257
43.046	12263
43.066	12313
43.086	12315
43.106	12470
43.126	12391
43.146	12424
43.166	12290
43.186	12548
43.206	12345
43.226	12361
43.246	12617
43.266	12513
43.286	12630
43.306	12522
43.326	12773
43.346	12861
43.366	12958
43.386	12967
43.406	12994
43.426	13089
43.446	13164
43.466	13313
43.486	13065
43.506	13212
43.526	13623
43.546	13488
43.566	13770
43.586	13763
43.606	14153
43.626	14310
43.646	14426
43.666	14720
43.686	14809
43.706	14993
43.726	15306
43.746	15559
43.766	15723
43.786	16081
43.806	16660
43.826	16684
43.846	16937
43.866	17380
43.886	17826
43.906	18410
43.926	18784
43.946	18880
43.966	19196
43.986	19383
44.006	19661
44.026	19424
44.046	19358
44.066	19227
44.086	19241
44.106	18925
44.126	19020
44.146	18336
44.166	18432
44.186	17948
44.206	17785
44.226	17821
44.246	17665
44.266	17285
44.286	17267
44.306	17180
44.326	16979
44.346	16980
44.366	16899
44.386	17007
44.406	16649
44.426	16456
44.446	16891
44.466	16615
44.486	16375
44.506	16324
44.526	16315
44.546	16369
44.566	16450
44.586	16428
44.606	16275
44.626	16515
44.646	16425
44.666	16633
44.686	16385
44.706	16572
44.726	16724
44.746	16594
44.766	16889
44.786	16727
44.806	16845
44.826	17244
44.846	17165
44.866	17132
44.886	16989
44.906	17045
44.926	16766
44.946	16969
44.966	16596
44.986	16220
45.006	16156
45.026	16166
45.046	15705
45.066	15182
45.086	15003
45.106	14734
45.126	14484
45.146	14352
45.166	13995
45.186	13732
45.206	13850
45.226	13775
45.246	13438
45.266	13314
45.286	13063
45.306	13015
45.326	12951
45.346	12650
45.366	12790
45.386	12771
45.406	12696
45.426	12751
45.446	12649
45.466	12368
45.486	12651
45.506	12404
45.526	12370
45.546	12429
45.566	12449
45.586	12047
45.606	12296
45.626	12326
45.646	12364
45.667	12073
45.687	12068
45.707	12259
45.727	12151
45.747	12019
45.767	12172
45.787	12142
45.807	12163
45.827	12383
45.847	12025
45.867	12236
45.887	12364
45.907	12246
45.927	12165
45.947	12038
45.967	12208
45.987	12167
46.007	12269
46.027	12131
46.047	12528
46.067	12477
46.087	12287
46.107	12145
46.127	12398
46.147	12239
46.167	12389
46.187	12386
46.207	12427
46.227	12521
46.247	12799
46.267	12817
46.287	12752
46.307	12745
46.327	12746
46.347	12539
46.367	12901
46.387	12837
46.407	12782
46.427	12659
46.447	12695
46.467	12880
46.487	12568
46.507	12478
46.527	12586
46.547	12653
46.567	12457
46.587	12419
46.607	12232
46.627	12541
46.647	12180
46.667	12286
46.687	12226
46.707	12060
46.727	12303
46.747	12377
46.767	12103
46.787	12035
46.807	12100
46.827	12004
46.847	12178
46.867	12108
46.887	12171
46.907	11978
46.927	11860
46.947	11972
46.967	11936
46.987	11921
47.007	11971
47.027	11872
47.047	11774
47.067	12056
47.087	11915
47.107	11803
47.127	11816
47.147	11784
47.167	11793
47.187	11658
47.207	11686
47.227	11587
47.247	11650
47.267	11821
47.287	11717
47.307	11768
47.327	11897
47.347	11588
47.367	11624
47.387	11641
47.407	11678
47.427	11887
47.447	11757
47.467	11715
47.487	11878
47.507	11570
47.527	11835
47.547	11439
47.567	11557
47.587	11869
47.607	11667
47.627	11630
47.647	11647
47.667	11483
47.687	11645
47.707	11549
47.727	11655
47.747	11519
47.767	11420
47.787	11782
47.807	11622
47.827	11792
47.847	11609
47.867	11454
47.887	11577
47.907	11656
47.927	11682
47.947	11611
47.967	11689
47.987	11535
48.007	11579
48.027	11600
48.047	11670
48.067	11562
48.087	11805
48.107	11541
48.127	11780
48.147	11689
48.167	11597
48.187	11537
48.207	11687
48.227	11648
48.247	11527
48.267	11663
48.287	11451
48.307	11700
48.327	11577
48.347	11732
48.367	11742
48.387	11729
48.407	11531
48.427	11732
48.447	11590
48.467	11638
48.487	11529
48.507	11541
48.527	11862
48.547	11866
48.567	11565
48.587	11405
48.607	11732
48.627	11874
48.647	11730
48.667	12074
48.687	11919
48.707	12035
48.727	11944
48.747	11947
48.767	11798
48.787	12039
48.807	11952
48.827	11866
48.847	11872
48.867	11784
48.887	12021
48.907	11808
48.927	11799
48.947	11811
48.967	11937
48.987	11598
49.007	11723
49.027	11659
49.047	11722
49.067	11550
49.087	11659
49.107	11795
49.127	11601
49.147	11774
49.167	11507
49.187	11602
49.207	11560
49.227	11650
49.247	11636
49.267	11455
49.287	11375
49.307	11608
49.327	11600
49.347	11590
49.367	11604
49.387	11530
49.407	11721
49.427	11613
49.447	11546
49.467	11604
49.487	11725
49.507	11515
49.527	11766
49.547	11630
49.567	11619
49.587	11571
49.607	11656
49.627	11545
49.647	11673
49.667	11598
49.687	11755
49.707	11718
49.727	11622
49.747	11709
49.767	11620
49.787	11871
49.807	11417
49.827	11793
49.847	11839
49.867	11834
49.887	11793
49.907	11723
49.927	11881
49.947	11996
49.967	11953
49.987	11936
50.007	11923
50.027	11921
50.047	11961
50.067	12123
50.087	12373
50.107	12240
50.127	12226
50.147	12289
50.167	12519
50.187	12262
50.207	12326
50.227	12578
50.247	12457
50.267	12221
50.287	12476
50.307	12402
50.327	12573
50.347	12373
50.367	12587
50.387	12486
50.407	12711
50.427	12509
50.447	12413
50.467	12378
50.487	12354
50.507	12204
50.527	12150
50.547	12428
50.567	12381
50.587	12267
50.607	12107
50.627	12133
50.647	12326
50.667	12296
50.687	12128
50.707	12055
50.727	12188
50.747	12080
50.767	12410
50.787	12364
50.807	11990
50.827	12530
50.847	12158
50.867	12398
50.887	12241
50.907	12469
50.927	12447
50.947	12510
50.967	12608
50.987	12551
51.007	12699
51.027	12718
51.047	13079
51.067	12843
51.087	13289
51.107	13177
51.127	13324
51.147	13185
51.167	13756
51.187	13449
51.207	13473
51.227	13537
51.247	13246
51.267	13353
51.287	13561
51.307	13349
51.327	13477
51.347	13062
51.367	12926
51.387	12828
51.407	13009
51.427	12854
51.447	12653
51.467	12667
51.487	12454
51.507	12434
51.527	12148
51.547	12194
51.567	12188
51.587	12218
51.607	12119
51.627	12282
51.647	12140
51.667	12318
51.687	12190
51.707	12150
51.727	12233
51.747	12227
51.767	12387
51.787	12003
51.807	12093
51.827	12329
51.847	12388
51.867	12187
51.888	12403
51.908	12249
51.928	12317
51.948	12521
51.968	12415
51.988	12480
52.008	12625
52.028	12324
52.048	12182
52.068	12397
52.088	12279
52.108	12320
52.128	12110
52.148	12378
52.168	12265
52.188	12014
52.208	11812
52.228	12217
52.248	12044
52.268	11889
52.288	11849
52.308	11719
52.328	11896
52.348	11871
52.368	11883
52.388	11799
52.408	11860
52.428	11949
52.448	11818
52.468	11873
52.488	11903
52.508	11883
52.528	11863
52.548	12017
52.568	11816
52.588	11680
52.608	11630
52.628	11702
52.648	11889
52.668	11880
52.688	11906
52.708	11971
52.728	11958
52.748	11910
52.768	11995
52.788	12013
52.808	11855
52.828	11999
52.848	11913
52.868	12231
52.888	12228
52.908	12023
52.928	12433
52.948	12220
52.968	12242
52.988	12420
53.008	12397
53.028	12514
53.048	12566
53.068	12376
53.088	12649
53.108	12583
53.128	12624
53.148	12653
53.168	12585
53.188	12592
53.208	12808
53.228	12635
53.248	12714
53.268	12605
53.288	12314
53.308	12441
53.328	12515
53.348	12429
53.368	12450
53.388	12382
53.408	12233
53.428	12244
53.448	12219
53.468	11963
53.488	12042
53.508	12060
53.528	11905
53.548	12113
53.568	11932
53.588	12079
53.608	11863
53.628	11739
53.648	11995
53.668	11901
53.688	11839
53.708	12074
53.728	11711
53.748	11887
53.768	11732
53.788	11749
53.808	11661
53.828	11813
53.848	11949
53.868	11460
53.888	11796
53.908	11657
53.928	11737
53.948	11740
53.968	11845
53.988	11845
54.008	11555
54.028	11648
54.048	11752
54.068	11641
54.088	11609
54.108	11839
54.128	11660
54.148	11741
54.168	11694
54.188	11641
54.208	11695
54.228	11765
54.248	11646
54.268	11641
54.288	11673
54.308	11632
54.328	11601
54.348	11640
54.368	11609
54.388	11715
54.408	11575
54.428	11670
54.448	11574
54.468	11574
54.488	11466
54.508	11439
54.528	11563
54.548	11550
54.568	11508
54.588	11436
54.608	11540
54.628	11544
54.648	11549
54.668	11530
54.688	11420
54.708	11500
54.728	11522
54.748	11811
54.768	11622
54.788	11409
54.808	11478
54.828	11515
54.848	11494
54.868	11593
54.888	11365
54.908	11417
54.928	11480
54.948	11650
54.968	11549
54.988	11456
55.008	11312
55.028	11488
55.048	11366
55.068	11458
55.088	11414
55.108	11449
55.128	11452
55.148	11454
55.168	11425
55.188	11451
55.208	11314
55.228	11117
55.248	11514
55.268	11434
55.288	11388
55.308	11451
55.328	11696
55.348	11493
55.368	11452
55.388	11411
55.408	11400
55.428	11364
55.448	11398
55.468	11511
55.488	11517
55.508	11325
55.528	11447
55.548	11590
55.568	11344
55.588	11346
55.608	11153
55.628	11544
55.648	11506
55.668	11211
55.688	11569
55.708	11488
55.728	11607
55.748	11307
55.768	11588
55.788	11680
55.808	11510
55.828	11644
55.848	11442
55.868	11539
55.888	11418
55.908	11516
55.928	11420
55.948	11477
55.968	11563
55.988	11631
56.008	11619
56.028	11482
56.048	11657
56.068	11764
56.088	11696
56.108	11766
56.128	11722
56.148	11642
56.168	11679
56.188	11655
56.208	11838
56.228	11697
56.248	11967
56.268	11887
56.288	11976
56.308	12022
56.328	11945
56.348	11954
56.368	11790
56.388	11965
56.408	12138
56.428	11885
56.448	11957
56.468	11919
56.488	12038
56.508	11900
56.528	11911
56.548	11849
56.568	11968
56.588	11822
56.608	11717
56.628	11876
56.648	12006
56.668	11773
56.688	11854
56.708	11623
56.728	11668
56.748	11599
56.768	11640
56.788	11543
56.808	11486
56.828	11714
56.848	11771
56.868	11595
56.888	11407
56.908	11536
56.928	11596
56.948	11655
56.968	11694
56.988	11651
57.008	11489
57.028	11623
57.048	11637
57.068	11535
57.088	11764
57.108	11646
57.128	11714
57.148	11496
57.168	11686
57.188	11746
57.208	11614
57.228	11619
57.248	11695
57.268	11821
57.288	11614
57.308	11630
57.328	11551
57.348	11625
57.368	11797
57.388	11826
57.408	11607
57.428	11863
57.448	11490
57.468	11758
57.488	11641
57.508	11747
57.528	11625
57.548	11703
57.568	11761
57.588	11686
57.608	11765
57.628	11674
57.648	11735
57.668	11530
57.688	11756
57.708	11655
57.728	11942
57.748	11997
57.768	11682
57.788	11748
57.808	11802
57.828	11769
57.848	11776
57.868	11997
57.888	11912
57.908	12065
57.928	12087
57.948	12121
57.968	12085
57.988	12263
58.008	12331
58.028	12154
58.048	12303
58.068	12692
58.088	12580
58.108	12477
58.128	12658
58.149	12585
58.169	12825
58.189	12794
58.209	12968
58.229	12869
58.249	12959
58.269	13344
58.289	13342
58.309	13334
58.329	13601
58.349	13401
58.369	13588
58.389	13781
58.409	13578
58.429	14122
58.449	13877
58.469	13888
58.489	13888
58.509	13809
58.529	13626
58.549	13910
58.569	13607
58.589	13906
58.609	13665
58.629	13600
58.649	13551
58.669	13274
58.689	13442
58.709	13263
58.729	13321
58.749	13222
58.769	13481
58.789	13002
58.809	13108
58.829	13050
58.849	12922
58.869	13255
58.889	13123
58.909	13343
58.929	13118
58.949	13424
58.969	13294
58.989	13318
59.009	13323
59.029	13185
59.049	13549
59.069	13243
59.089	13553
59.109	13579
59.129	13727
59.149	13813
59.169	13972
59.189	14148
59.209	14082
59.229	14185
59.249	14406
59.269	14300
59.289	14433
59.309	14772
59.329	14587
59.349	14853
59.369	14772
59.389	14825
59.409	14848
59.429	15181
59.449	15324
59.469	15530
59.489	15186
59.509	15449
59.529	15382
59.549	15336
59.569	15415
59.589	15519
59.609	15516
59.629	15334
59.649	15232
59.669	15081
59.689	15058
59.709	14941
59.729	15267
59.749	14831
59.769	14922
59.789	14544
59.809	14519
59.829	14411
59.849	14094
59.869	13970
59.889	13884
59.909	13727
59.929	13764
59.949	13604
59.969	13561
59.989	13389
60.009	13410
60.029	13074
60.049	13301
60.069	13036
60.089	12980
60.109	12862
60.129	12812
60.149	12709
60.169	12807
60.189	12727
60.209	12825
60.229	12520
60.249	12830
60.269	12475
60.289	12529
60.309	12412
60.329	12688
60.349	12508
60.369	12312
60.389	12600
60.409	12505
60.429	12589
60.449	12484
60.469	12508
60.489	12291
60.509	12603
60.529	12216
60.549	12361
60.569	12497
60.589	12257
60.609	12276
60.629	12125
60.649	12071
60.669	12301
60.689	12143
60.709	12291
60.729	12264
60.749	11930
60.769	11928
60.789	11932
60.809	11963
60.829	11925
60.849	11921
60.869	11894
60.889	11841
60.909	12012
60.929	12054
60.949	11866
60.969	11743
60.989	11953
61.009	11806
61.029	11894
61.049	11567
61.069	11675
61.089	11725
61.109	11872
61.129	11662
61.149	11743
61.169	11746
61.189	11765
61.209	11659
61.229	11829
61.249	11737
61.269	11696
61.289	11705
61.309	11669
61.329	11735
61.349	11685
61.369	11750
61.389	11677
61.409	11609
61.429	11528
61.449	11717
61.469	11628
61.489	11641
61.509	11522
61.529	11559
61.549	11834
61.569	11608
61.589	11621
61.609	11556
61.629	11635
61.649	11603
61.669	11624
61.689	11624
61.709	11725
61.729	11456
61.749	11677
61.769	11479
61.789	11646
61.809	11840
61.829	11414
61.849	11578
61.869	11554
61.889	11635
61.909	11572
61.929	11643
61.949	11582
61.969	11632
61.989	11721
62.009	11611
62.029	11717
62.049	11580
62.069	11753
62.089	11826
62.109	11810
62.129	11721
62.149	11728
62.169	11731
62.189	11678
62.209	11637
62.229	11800
62.249	11579
62.269	11887
62.289	11634
62.309	11658
62.329	11685
62.349	11927
62.369	11770
62.389	11733
62.409	11750
62.429	11785
62.449	12041
62.469	11900
62.489	11796
62.509	11773
62.529	11786
62.549	11873
62.569	11966
62.589	11877
62.609	11986
62.629	12011
62.649	11846
62.669	11773
62.689	11886
62.709	12016
62.729	11752
62.749	11698
62.769	11799
62.789	11682
62.809	11916
62.829	11806
62.849	11863
62.869	11690
62.889	11921
62.909	11782
62.929	11856
62.949	11717
62.969	11851
62.989	11732
63.009	11658
63.029	11894
63.049	11662
63.069	11573
63.089	11759
63.109	11764
63.129	11903
63.149	11580
63.169	11649
63.189	11810
63.209	11723
63.229	11901
63.249	11755
63.269	11624
63.289	11684
63.309	11842
63.329	11733
63.349	11698
63.369	11682
63.389	11882
63.409	11749
63.429	11836
63.449	11761
63.469	11891
63.489	11795
63.509	11874
63.529	11661
63.549	11837
63.569	11801
63.589	11761
63.609	11724
63.629	11843
63.649	11885
63.669	11814
63.689	11869
63.709	11823
63.729	11856
63.749	11935
63.769	11873
63.789	11936
63.809	11918
63.829	11996
63.849	11825
63.869	11932
63.889	12084
63.909	11913
63.929	12036
63.949	12033
63.969	12275
63.989	12345
64.009	12216
64.029	12037
64.049	11923
64.069	12260
64.089	12121
64.109	12221
64.129	12253
64.149	12307
64.169	12230
64.189	12479
64.209	12276
64.229	12517
64.249	12257
64.269	12694
64.289	12552
64.309	12206
64.329	12372
64.349	12379
64.369	12492
64.389	12294
64.410	12302
64.430	12128
64.450	12207
64.470	12396
64.490	12247
64.510	12013
64.530	12225
64.550	12323
64.570	12247
64.590	12100
64.610	12065
64.630	12173
64.650	12195
64.670	12373
64.690	11861
64.710	11843
64.730	11819
64.750	11793
64.770	11815
64.790	11957
64.810	11833
64.830	11938
64.850	11910
64.870	11821
64.890	11776
64.910	11606
64.930	11827
64.950	11657
64.970	11806
64.990	11467
65.010	11679
65.030	11837
65.050	11684
65.070	11508
65.090	11701
65.110	11571
65.130	11582
65.150	11344
65.170	11613
65.190	11664
65.210	11302
65.230	11500
65.250	11385
65.270	11415
65.290	11492
65.310	11465
65.330	11540
65.350	11438
65.370	11647
65.390	11436
65.410	11350
65.430	11581
65.450	11587
65.470	11608
65.490	11442
65.510	11363
65.530	11632
65.550	11502
65.570	11487
65.590	11357
65.610	11458
65.630	11461
65.650	11518
65.670	11575
65.690	11420
65.710	11408
65.730	11517
65.750	11551
65.770	11400
65.790	11475
65.810	11479
65.830	11375
65.850	11616
65.870	11424
65.890	11346
65.910	11331
65.930	11820
65.950	11485
65.970	11370
65.990	11488
66.010	11266
66.030	11534
66.050	11511
66.070	11582
66.090	11725
66.110	11328
66.130	11432
66.150	11325
66.170	11531
66.190	11391
66.210	11289
66.230	11459
66.250	11521
66.270	11480
66.290	11390
66.310	11408
66.330	11490
66.350	11389
66.370	11458
66.390	11412
66.410	11504
66.430	11469
66.450	11391
66.470	11472
66.490	11469
66.510	11647
66.530	11420
66.550	11427
66.570	11596
66.590	11689
66.610	11513
66.630	11774
66.650	11631
66.670	11536
66.690	11500
66.710	11829
66.730	11637
66.750	11855
66.770	11437
66.790	11859
66.810	11491
66.830	11524
66.850	11807
66.870	11678
66.890	11572
66.910	11826
66.930	11849
66.950	11801
66.970	12072
66.990	11670
67.010	11857
67.030	11901
67.050	11811
67.070	11617
67.090	11948
67.110	11785
67.130	11754
67.150	11695
67.170	11812
67.190	12018
67.210	11994
67.230	11951
67.250	11860
67.270	12126
67.290	11955
67.310	11951
67.330	11982
67.350	11802
67.370	12104
67.390	11964
67.410	11808
67.430	11856
67.450	12054
67.470	12037
67.490	11908
67.510	12025
67.530	12043
67.550	11937
67.570	12058
67.590	11938
67.610	11955
67.630	11841
67.650	11872
67.670	11915
67.690	12032
67.710	11838
67.730	12025
67.750	11941
67.770	11893
67.790	11836
67.810	11781
67.830	12118
67.850	12172
67.870	11888
67.890	12108
67.910	11914
67.930	12142
67.950	11879
67.970	12024
67.990	12033
68.010	11950
68.030	11901
68.050	12165
68.070	12092
68.090	11917
68.110	11980
68.130	12174
68.150	12014
68.170	12106
68.190	12034
68.210	12102
68.230	11903
68.250	11887
68.270	11820
68.290	11813
68.310	11949
68.330	11873
68.350	11957
68.370	12183
68.390	11961
68.410	11858
68.430	11897
68.450	11806
68.470	11983
68.490	11846
68.510	11993
68.530	11893
68.550	11697
68.570	11944
68.590	11713
68.610	11896
68.630	11585
68.650	11740
68.670	11864
68.690	11734
68.710	11677
68.730	11775
68.750	11921
68.770	12034
68.790	11668
68.810	11876
68.830	11776
68.850	11807
68.870	11718
68.890	11884
68.910	11576
68.930	11573
68.950	11772
68.970	11594
68.990	11561
69.010	11737
69.030	11843
69.050	11879
69.070	11810
69.090	11677
69.110	11737
69.130	12028
69.150	11675
69.170	11767
69.190	11796
69.210	11657
69.230	11588
69.250	11777
69.270	11684
69.290	11650
69.310	11637
69.330	11873
69.350	12021
69.370	12016
69.390	11915
69.410	12057
69.430	11977
69.450	11888
69.470	11810
69.490	11995
69.510	12267
69.530	11972
69.550	11989
69.570	12072
69.590	12123
69.610	12077
69.630	11989
69.650	12271
69.670	12155
69.690	12083
69.710	12204
69.730	12300
69.750	12436
69.770	12398
69.790	12360
69.810	12325
69.830	12402
69.850	12424
69.870	12456
69.890	12542
69.910	12751
69.930	12626
69.950	12691
69.970	12701
69.990	12787
70.010	12774
70.030	12795
70.050	12724
70.070	12783
70.090	12717
70.110	12809
70.130	12982
70.150	12898
70.170	12958
70.190	12975
70.210	13074
70.230	13031
70.250	13032
70.270	13018
70.290	13311
70.310	13017
70.330	13042
70.350	13106
70.370	13056
70.390	13083
70.410	13051
70.430	12948
70.450	12966
70.470	12814
70.490	12690
70.510	13073
70.530	12962
70.550	12860
70.570	12702
70.590	12453
70.610	12770
70.631	12739
70.650	12808
70.671	12468
70.691	12571
70.711	12634
70.731	12571
70.751	12462
70.771	12474
70.791	12417
70.811	12554
70.831	12580
70.851	12440
70.871	12285
70.891	12345
70.911	12278
70.931	12518
70.951	12470
70.971	12220
70.991	12361
71.011	12223
71.031	12457
71.051	12414
71.071	12471
71.091	12113
71.111	12212
71.131	12261
71.151	12138
71.171	12200
71.191	12275
71.211	12092
71.231	12208
71.251	12222
71.271	12226
71.291	12150
71.311	12106
71.331	12315
71.351	12218
71.371	12059
71.391	12085
71.411	12118
71.431	12123
71.451	12135
71.471	12019
71.491	12111
71.511	12015
71.531	12007
71.551	11873
71.571	12013
71.591	11997
71.611	11800
71.631	11946
71.651	12031
71.671	12037
71.691	11771
71.711	11786
71.731	11870
71.751	11944
71.771	11859
71.791	11754
71.811	11859
71.831	11802
71.851	11904
71.871	11840
71.891	11673
71.911	11672
71.931	11667
71.951	11923
71.971	11761
71.991	11894
72.011	11830
72.031	11585
72.051	11665
72.071	11644
72.091	11718
72.111	11767
72.131	11881
72.151	11627
72.171	11804
72.191	11852
72.211	11616
72.231	11767
72.251	11596
72.271	11777
72.291	11615
72.311	11605
72.331	12007
72.351	11839
72.371	11792
72.391	11533
72.411	11793
72.431	11739
72.451	11716
72.471	11644
72.491	11658
72.511	11578
72.531	11813
72.551	11528
72.571	11628
72.591	11570
72.611	11672
72.631	11735
72.651	11607
72.671	11642
72.691	11515
72.711	11457
72.731	11478
72.751	11498
72.771	11789
72.791	11479
72.811	11604
72.831	11593
72.851	11601
72.871	11534
72.891	11453
72.911	11532
72.931	11499
72.951	11548
72.971	11405
72.991	11411
73.011	11442
73.031	11304
73.051	11495
73.071	11669
73.091	11391
73.111	11499
73.131	11335
73.151	11286
73.171	11388
73.191	11358
73.211	11323
73.231	11495
73.251	11539
73.271	11355
73.291	11294
73.311	11352
73.331	11383
73.351	11314
73.371	11304
73.391	11424
73.411	11435
73.431	11465
73.451	11263
73.471	11634
73.491	11498
73.511	11477
73.531	11179
73.551	11392
73.571	11431
73.591	11506
73.611	11330
73.631	11388
73.651	11438
73.671	11497
73.691	11542
73.711	11505
73.731	11507
73.751	11445
73.771	11415
73.791	11572
73.811	11475
73.831	11221
73.851	11456
73.871	11396
73.891	11421
73.911	11410
73.931	11372
73.951	11447
73.971	11263
73.991	11526
74.011	11303
74.031	11445
74.051	11411
74.071	11465
74.091	11649
74.111	11451
74.131	11602
74.151	11524
74.171	11480
74.191	11477
74.211	11480
74.231	11399
74.251	11421
74.271	11415
74.291	11239
74.311	11460
74.331	11472
74.351	11438
74.371	11526
74.391	11381
74.411	11638
74.431	11498
74.451	11527
74.471	11463
74.491	11404
74.511	11696
74.531	11321
74.551	11490
74.571	11473
74.591	11456
74.611	11277
74.631	11683
74.651	11721
74.671	11489
74.691	11563
74.711	11533
74.731	11515
74.751	11490
74.771	11469
74.791	11379
74.811	11655
74.831	11546
74.851	11360
74.871	11707
74.891	11557
74.911	11760
74.931	11667
74.951	11543
74.971	11623
74.991	11599
75.011	11638
75.031	11781
75.051	11658
75.071	11791
75.091	11881
75.111	11926
75.131	11635
75.151	11858
75.171	11886
75.191	12024
75.211	11728
75.231	11825
75.251	11783
75.271	11923
75.291	12040
75.311	11885
75.331	12118
75.351	11928
75.371	11789
75.391	12142
75.411	12035
75.431	12121
75.451	12205
75.471	12388
75.491	12121
75.511	12205
75.531	12424
75.551	12358
75.571	12473
75.591	12550
75.611	12539
75.631	12682
75.651	12662
75.671	12781
75.691	12874
75.711	12790
75.731	12706
75.751	12711
75.771	12932
75.791	12989
75.811	12951
75.831	12945
75.851	12758
75.871	12824
75.891	12974
75.911	13055
75.931	13139
75.951	12853
75.971	12741
75.991	13159
76.011	13085
76.031	13138
76.051	13240
76.071	12872
76.091	13124
76.111	12854
76.131	13013
76.151	12828
76.171	13025
76.191	12809
76.211	12953
76.231	13034
76.251	13007
76.271	12642
76.291	13125
76.311	13010
76.331	12917
76.351	12780
76.371	12985
76.391	12761
76.411	12744
76.431	12822
76.451	12909
76.471	12657
76.491	12842
76.511	12645
76.531	12773
76.551	12890
76.571	12928
76.591	12832
76.611	12678
76.631	13121
76.651	13033
76.671	12890
76.691	12895
76.711	12953
76.731	12964
76.751	12665
76.771	12543
76.791	12796
76.811	12628
76.831	12484
76.851	12807
76.871	12397
76.892	12566
76.911	12603
76.932	12416
76.952	12435
76.972	12631
76.992	12540
77.012	12296
77.032	12439
77.052	12373
77.072	12236
77.092	12215
77.112	12370
77.132	12313
77.152	12443
77.172	12204
77.192	12263
77.212	12030
77.232	12230
77.252	12173
77.272	12292
77.292	12042
77.312	12039
77.332	12078
77.352	12001
77.372	11856
77.392	11867
77.412	12153
77.432	11975
77.452	11942
77.472	11975
77.492	11803
77.512	11985
77.532	12082
77.552	12047
77.572	11891
77.592	11996
77.612	11972
77.632	11856
77.652	12011
77.672	12053
77.692	12196
77.712	11981
77.732	12091
77.752	11934
77.772	12146
77.792	12142
77.812	12046
77.832	11960
77.852	12147
77.872	12067
77.892	12066
77.912	12041
77.932	12153
77.952	12010
77.972	12037
77.992	12034
78.012	11911
78.032	11852
78.052	11901
78.072	11887
78.092	11923
78.112	11742
78.132	11942
78.152	11699
78.172	11813
78.192	11775
78.212	11698
78.232	11754
78.252	11670
78.272	11674
78.292	11630
78.312	11566
78.332	11493
78.352	11482
78.372	11516
78.392	11547
78.412	11617
78.432	11593
78.452	11315
78.472	11337
78.492	11535
78.512	11410
78.532	11414
78.552	11222
78.572	11208
78.592	11296
78.612	11490
78.632	11242
78.652	11298
78.672	11535
78.692	11413
78.712	11296
78.732	11548
78.752	11361
78.772	11260
78.792	11270
78.812	11482
78.832	11312
78.852	11436
78.872	11243
78.892	11265
78.912	11154
78.932	11289
78.952	11286
78.972	11485
78.992	11295
79.012	11357
79.032	11349
79.052	11374
79.072	11303
79.092	11318
79.112	11475
79.132	11194
79.152	11347
79.172	11424
79.192	11232
79.212	11384
79.232	11450
79.252	11462
79.272	11245
79.292	11306
79.312	11444
79.332	11473
79.352	11340
79.372	11414
79.392	11280
79.412	11206
79.432	11423
79.452	11261
79.472	11177
79.492	11345
79.512	11357
79.532	11199
79.552	11559
79.572	11330
79.592	11264
79.612	11248
79.632	11196
79.652	11385
79.672	11299
79.692	11340
79.712	11332
79.732	11188
79.752	11194
79.772	11082
79.792	11463
79.812	11292
79.832	11282
79.852	11395
79.872	11303
79.892	11171
79.912	11351
79.932	11391
79.952	11208
79.972	11308
79.992	11348
